-7.84E-18,-5.96E-07,-9.37E-07,-8.23E-07,-1.62E-07,1E-06,2.49E-06,4E-06,5.2E-06,5.73E-06,5.34E-06,3.91E-06,1.5E-06,-1.63E-06,-5.04E-06,-8.2E-06,-1.05E-05,-1.15E-05,-1.08E-05,-8.37E-06,-4.3E-06,9.22E-07,6.59E-06,1.19E-05,1.59E-05,1.8E-05,1.75E-05,1.43E-05,8.75E-06,1.35E-06,-6.91E-06,-1.49E-05,-2.13E-05,-2.5E-05,-2.54E-05,-2.2E-05,-1.51E-05,-5.48E-06,5.68E-06,1.68E-05,2.63E-05,3.26E-05,3.45E-05,3.15E-05,2.37E-05,1.19E-05,-2.49E-06,-1.74E-05,-3.07E-05,-4.04E-05,-4.48E-05,-4.29E-05,-3.47E-05,-2.09E-05,-3.17E-06,1.61E-05,3.41E-05,4.82E-05,5.61E-05,5.64E-05,4.84E-05,3.29E-05,1.18E-05,-1.22E-05,-3.57E-05,-5.54E-05,-6.81E-05,-7.16E-05,-6.49E-05,-4.85E-05,-2.41E-05,5.03E-06,3.5E-05,6.14E-05,8.03E-05,8.85E-05,8.43E-05,6.78E-05,4.06E-05,6.13E-06,-3.09E-05,-6.53E-05,-9.19E-05,-0.000106503988804,-0.000106446280082,-9.1E-05,-6.17E-05,-2.21E-05,2.26E-05,6.61E-05,0.000102046901773,0.000124952604042,0.000130881589384,0.000118201695559,8.79E-05,4.36E-05,-9.05E-06,-6.27E-05,-0.00010967032762,-0.000142914588754,-0.000157022493635,-0.000149125154312,-0.000119409454647,-7.12E-05,-1.07E-05,5.39E-05,0.000113466419159,0.000159218709139,0.000183970580767,0.000183282833604,0.000156203635021,0.000105549731207,3.77E-05,-3.84E-05,-0.000112011313886,-0.000172464701092,-0.000210541118477,-0.000219873042444,-0.00019798363391,-0.000146797256927,-7.25E-05,1.5E-05,0.000103787751649,0.000181051900396,0.000235266627757,0.000257765282252,0.000244118708609,0.000194932899887,0.000115949971325,1.74E-05,-8.72E-05,-0.000183224176507,-0.000256417183704,-0.000295492805433,-0.000293611881209,-0.000249576660709,-0.000168204867653,-5.99E-05,6.09E-05,0.000177130660948,0.000272038349555,0.000331262327798,0.000345079686451,0.000309953097713,0.00022925078529,0.000112997236825,-2.33E-05,-0.000160900876311,-0.000280006795481,-0.000362982398411,-0.000396749080651,-0.000374856709264,-0.000298626590702,-0.000177214566383,-2.66E-05,0.000132731999051,0.000278102739295,0.000388311095349,0.000446473636841,0.000442633993917,0.0003754077907,0.000252448000326,8.96E-05,-9.1E-05,-0.000264097414264,-0.000404722791257,-0.000491770356667,-0.000511184943146,-0.00045817200368,-0.00033816044669,-0.000166327731197,3.43E-05,0.000235852864918,0.000409592759561,0.000529877516439,0.00057798598977,0.000544983448416,0.000433279643096,0.000256605587877,3.84E-05,-0.000191430540531,-0.000400297415559,-0.000557832971328,-0.000640135556833,-0.0006333991786,-0.000536163717794,-0.000359858904617,-0.000127517908166,0.000129204441943,0.000374327053446,0.000572571311895,0.000694422361396,0.000720498972429,0.000644588150782,0.00047487520304,0.000233146382548,-4.8E-05,-0.000329407097503,-0.000571037248217,-0.000737415567053,-0.000802939824976,-0.000755756825779,-0.000599797004794,-0.000354603883717,-5.29E-05,0.000263623177551,0.000550311637666,0.000765574794568,0.000877034924883,0.000866338958091,0.000732111232055,0.00049055200489,0.000173540544441,-0.000175544805493,-0.00050774572076,-0.000775376941369,-0.000938855870918,-0.00097253263941,-0.00086866506507,-0.000638928623381,-0.000313190018613,6.43E-05,0.000441098430277,0.00076345577817,0.000984355747236,0.001070154600264,0.001005709908189,0.000796939629198,0.000470433697416,7.01E-05,-0.000348671131611,-0.000726749433475,-0.00100950958052,-0.001154754601514,-0.001138973991001,-0.000961079485565,-0.000643023235205,-0.000227145957472,0.000229433869274,0.000662650189167,0.001010467699312,0.001221751679995,0.0012637629185,0.001127182131499,0.000827898868813,0.000405246175318,-8.31E-05,-0.00056915053175,-0.000983716655335,-0.00126658834351,-0.001375086234157,-0.001290502532529,-0.00102121448697,-0.000602002153544,-8.96E-05,0.000444979164958,0.000926241693357,0.001284897790086,0.001467806826629,0.001445827902988,0.001218395264129,0.000814111979898,0.000287206019824,-0.000289720711788,-0.000835684308418,-0.001272678365673,-0.001536808849718,-0.001587616315317,-0.001414227940083,-0.001037409673431,-0.000507156398593,0.00010391312775,0.000710488236431,0.001226468818137,0.00157717879044,0.001710159134766,0.001602982476791,0.001266929241031,0.000745935116924,0.000110882588958,-0.00055002730548,-0.001143517490588,-0.00158439346192,-0.001807762528768,-0.001778562460964,-0.001497003350515,-0.000999085729468,-0.000352044983949,0.000354708938354,0.001021938451812,0.001554508060748,0.001874942253983,0.001934680303277,0.001721395060424,0.001261277846949,0.00061589057102,-0.000126047737541,-0.000860847702641,-0.001484337048514,-0.001906625071244,-0.002065052071193,-0.001933459632193,-0.001526413754484,-0.000897710387436,-0.000133295514556,0.000660473029711,0.001371620520566,0.001898349523059,0.002163605737704,0.00212633209566,0.001787769729503,0.001191845575024,0.000419512973459,-0.000422231794599,-0.001215168926346,-0.00184645846489,-0.002224695783525,-0.002293135003507,-0.002038168748657,-0.001491801387284,-0.000727689174942,0.000148771927008,0.00101497950709,0.001748275694302,0.002243316498381,0.002427199750301,0.002270179884992,0.00179039749094,0.001051881537216,0.000156027396481,-0.000772318607785,-0.001602259283568,-0.002215306021474,-0.002522293997685,-0.00247633844339,-0.002079950923982,-0.001385241099704,-0.000487097504166,0.000489765077804,0.001408124790723,0.002137533164192,0.002572847180997,0.002649379820232,0.002352486654684,0.001720171090506,0.000838264987597,-0.000171211263368,-0.00116693238788,-0.00200805937946,-0.002574165806126,-0.002782479252361,-0.002599969418571,-0.002048519368612,-0.001202378424252,-0.000178180430849,0.000881133077268,0.001826268878218,0.002522630298808,0.002869489081624,0.002814549449309,0.002361799343996,0.001571474389306,0.000552065829036,-0.000554570526577,-0.00159296082775,-0.002415865549,-0.002905164934883,-0.002988813914372,-0.00265143270071,-0.001936978500063,-0.000943050865056,0.00019243659686,0.001310398769197,0.002252877994037,0.002885372323155,0.0031160353568,0.002909006191407,0.002289935772635,0.00134286412498,0.000198819699145,-0.000982313821123,-0.002034153086271,-0.002807265602069,-0.003190408258747,-0.003126533984887,-0.002621263285885,-0.001742565507966,-0.000611628346957,0.000613859840557,0.00176170826082,0.0026694319998,0.003207264996442,0.003296716569462,0.002922017098483,0.002132784981593,0.001037476412575,-0.000211520432344,-0.001439098012608,-0.002471994485242,-0.003163262951438,-0.003413187070802,-0.003183664598811,-0.002503984120582,-0.001467123244057,-0.000217030534274,0.001071369354271,0.00221666858248,0.003056535367452,0.003470736046367,0.003398353020944,0.002846732079553,0.001890846487157,0.000663111495423,-0.000664967695202,-0.001906769790335,-0.002886799669841,-0.00346550636893,-0.003559164757559,-0.003151986907416,-0.002298711324045,-0.001117253785287,0.00022759498904,0.001547169980559,0.00265541835703,0.003395150693735,0.00366035035295,0.003411372698155,0.002680854320048,0.001569453688856,0.000231976228551,-0.001144202960468,-0.002365409179914,-0.003258945188968,-0.003697530662805,-0.003617443012401,-0.003027772545716,-0.002009448111935,-0.000704127618283,0.000705521225639,0.002021403086683,0.003057854655687,0.003667860604108,0.003763921304327,0.003330608263611,0.002427005019003,0.001178651836833,-0.000239907724055,-0.001629550260089,-0.002794545818509,-0.003570148156831,-0.003845909742887,-0.003581419450874,-0.002812219099643,-0.001645033292652,-0.000242951866312,0.001197376440587,0.002473347370417,0.003404923774716,0.003860058804336,0.003773426775494,0.003155802782403,0.002092743807256,0.000732729346013,-0.000733593539507,-0.002100157235487,-0.0031744570603,-0.003804691300111,-0.003901228347163,-0.003449362738592,-0.002511543471383,-0.001218738432628,0.000247870230266,0.001682299399845,0.002882719395616,0.003679876043596,0.00396097459924,0.003685652410675,0.002891776680676,0.001690234211475,0.000249430304193,-0.001228334480572,-0.00253529312472,-0.003487448093803,-0.003950496989623,-0.003858791848823,-0.003224653400924,-0.002136717753157,-0.000747537052435,0.000747829883378,0.002139229784149,0.003230974377956,0.003869385786067,0.003964447218702,0.003502506148839,0.002548235785866,0.001235572934626,-0.000251096876622,-0.001702861698984,-0.002915665417158,-0.003719013966379,0.995990964822962,-0.003719013966379,-0.002915665417158,-0.001702861698984,-0.000251096876622,0.001235572934626,0.002548235785866,0.003502506148839,0.003964447218702,0.003869385786067,0.003230974377956,0.002139229784149,0.000747829883378,-0.000747537052435,-0.002136717753157,-0.003224653400924,-0.003858791848823,-0.003950496989623,-0.003487448093803,-0.00253529312472,-0.001228334480572,0.000249430304193,0.001690234211475,0.002891776680676,0.003685652410675,0.00396097459924,0.003679876043596,0.002882719395616,0.001682299399845,0.000247870230266,-0.001218738432628,-0.002511543471383,-0.003449362738592,-0.003901228347163,-0.003804691300111,-0.0031744570603,-0.002100157235487,-0.000733593539507,0.000732729346013,0.002092743807256,0.003155802782403,0.003773426775494,0.003860058804336,0.003404923774716,0.002473347370417,0.001197376440587,-0.000242951866312,-0.001645033292652,-0.002812219099643,-0.003581419450874,-0.003845909742887,-0.003570148156831,-0.002794545818509,-0.001629550260089,-0.000239907724055,0.001178651836833,0.002427005019003,0.003330608263611,0.003763921304327,0.003667860604108,0.003057854655687,0.002021403086683,0.000705521225639,-0.000704127618283,-0.002009448111935,-0.003027772545716,-0.003617443012401,-0.003697530662805,-0.003258945188968,-0.002365409179914,-0.001144202960468,0.000231976228551,0.001569453688856,0.002680854320048,0.003411372698155,0.00366035035295,0.003395150693735,0.00265541835703,0.001547169980559,0.00022759498904,-0.001117253785287,-0.002298711324045,-0.003151986907416,-0.003559164757559,-0.00346550636893,-0.002886799669841,-0.001906769790335,-0.000664967695202,0.000663111495423,0.001890846487157,0.002846732079553,0.003398353020944,0.003470736046367,0.003056535367452,0.00221666858248,0.001071369354271,-0.000217030534274,-0.001467123244057,-0.002503984120582,-0.003183664598811,-0.003413187070802,-0.003163262951438,-0.002471994485242,-0.001439098012608,-0.000211520432344,0.001037476412575,0.002132784981593,0.002922017098483,0.003296716569462,0.003207264996442,0.0026694319998,0.00176170826082,0.000613859840557,-0.000611628346957,-0.001742565507966,-0.002621263285885,-0.003126533984887,-0.003190408258747,-0.002807265602069,-0.002034153086271,-0.000982313821123,0.000198819699145,0.00134286412498,0.002289935772635,0.002909006191407,0.0031160353568,0.002885372323155,0.002252877994037,0.001310398769197,0.00019243659686,-0.000943050865056,-0.001936978500063,-0.00265143270071,-0.002988813914372,-0.002905164934883,-0.002415865549,-0.00159296082775,-0.000554570526577,0.000552065829036,0.001571474389306,0.002361799343996,0.002814549449309,0.002869489081624,0.002522630298808,0.001826268878218,0.000881133077268,-0.000178180430849,-0.001202378424252,-0.002048519368612,-0.002599969418571,-0.002782479252361,-0.002574165806126,-0.00200805937946,-0.00116693238788,-0.000171211263368,0.000838264987597,0.001720171090506,0.002352486654684,0.002649379820232,0.002572847180997,0.002137533164192,0.001408124790723,0.000489765077804,-0.000487097504166,-0.001385241099704,-0.002079950923982,-0.00247633844339,-0.002522293997685,-0.002215306021474,-0.001602259283568,-0.000772318607785,0.000156027396481,0.001051881537216,0.00179039749094,0.002270179884992,0.002427199750301,0.002243316498381,0.001748275694302,0.00101497950709,0.000148771927008,-0.000727689174942,-0.001491801387284,-0.002038168748657,-0.002293135003507,-0.002224695783525,-0.00184645846489,-0.001215168926346,-0.000422231794599,0.000419512973459,0.001191845575024,0.001787769729503,0.00212633209566,0.002163605737704,0.001898349523059,0.001371620520566,0.000660473029711,-0.000133295514556,-0.000897710387436,-0.001526413754484,-0.001933459632193,-0.002065052071193,-0.001906625071244,-0.001484337048514,-0.000860847702641,-0.000126047737541,0.00061589057102,0.001261277846949,0.001721395060424,0.001934680303277,0.001874942253983,0.001554508060748,0.001021938451812,0.000354708938354,-0.000352044983949,-0.000999085729468,-0.001497003350515,-0.001778562460964,-0.001807762528768,-0.00158439346192,-0.001143517490588,-0.00055002730548,0.000110882588958,0.000745935116924,0.001266929241031,0.001602982476791,0.001710159134766,0.00157717879044,0.001226468818137,0.000710488236431,0.00010391312775,-0.000507156398593,-0.001037409673431,-0.001414227940083,-0.001587616315317,-0.001536808849718,-0.001272678365673,-0.000835684308418,-0.000289720711788,0.000287206019824,0.000814111979898,0.001218395264129,0.001445827902988,0.001467806826629,0.001284897790086,0.000926241693357,0.000444979164958,-8.96E-05,-0.000602002153544,-0.00102121448697,-0.001290502532529,-0.001375086234157,-0.00126658834351,-0.000983716655335,-0.00056915053175,-8.31E-05,0.000405246175318,0.000827898868813,0.001127182131499,0.0012637629185,0.001221751679995,0.001010467699312,0.000662650189167,0.000229433869274,-0.000227145957472,-0.000643023235205,-0.000961079485565,-0.001138973991001,-0.001154754601514,-0.00100950958052,-0.000726749433475,-0.000348671131611,7.01E-05,0.000470433697416,0.000796939629198,0.001005709908189,0.001070154600264,0.000984355747236,0.00076345577817,0.000441098430277,6.43E-05,-0.000313190018613,-0.000638928623381,-0.00086866506507,-0.00097253263941,-0.000938855870918,-0.000775376941369,-0.00050774572076,-0.000175544805493,0.000173540544441,0.00049055200489,0.000732111232055,0.000866338958091,0.000877034924883,0.000765574794568,0.000550311637666,0.000263623177551,-5.29E-05,-0.000354603883717,-0.000599797004794,-0.000755756825779,-0.000802939824976,-0.000737415567053,-0.000571037248217,-0.000329407097503,-4.8E-05,0.000233146382548,0.00047487520304,0.000644588150782,0.000720498972429,0.000694422361396,0.000572571311895,0.000374327053446,0.000129204441943,-0.000127517908166,-0.000359858904617,-0.000536163717794,-0.0006333991786,-0.000640135556833,-0.000557832971328,-0.000400297415559,-0.000191430540531,3.84E-05,0.000256605587877,0.000433279643096,0.000544983448416,0.00057798598977,0.000529877516439,0.000409592759561,0.000235852864918,3.43E-05,-0.000166327731197,-0.00033816044669,-0.00045817200368,-0.000511184943146,-0.000491770356667,-0.000404722791257,-0.000264097414264,-9.1E-05,8.96E-05,0.000252448000326,0.0003754077907,0.000442633993917,0.000446473636841,0.000388311095349,0.000278102739295,0.000132731999051,-2.66E-05,-0.000177214566383,-0.000298626590702,-0.000374856709264,-0.000396749080651,-0.000362982398411,-0.000280006795481,-0.000160900876311,-2.33E-05,0.000112997236825,0.00022925078529,0.000309953097713,0.000345079686451,0.000331262327798,0.000272038349555,0.000177130660948,6.09E-05,-5.99E-05,-0.000168204867653,-0.000249576660709,-0.000293611881209,-0.000295492805433,-0.000256417183704,-0.000183224176507,-8.72E-05,1.74E-05,0.000115949971325,0.000194932899887,0.000244118708609,0.000257765282252,0.000235266627757,0.000181051900396,0.000103787751649,1.5E-05,-7.25E-05,-0.000146797256927,-0.00019798363391,-0.000219873042444,-0.000210541118477,-0.000172464701092,-0.000112011313886,-3.84E-05,3.77E-05,0.000105549731207,0.000156203635021,0.000183282833604,0.000183970580767,0.000159218709139,0.000113466419159,5.39E-05,-1.07E-05,-7.12E-05,-0.000119409454647,-0.000149125154312,-0.000157022493635,-0.000142914588754,-0.00010967032762,-6.27E-05,-9.05E-06,4.36E-05,8.79E-05,0.000118201695559,0.000130881589384,0.000124952604042,0.000102046901773,6.61E-05,2.26E-05,-2.21E-05,-6.17E-05,-9.1E-05,-0.000106446280082,-0.000106503988804,-9.19E-05,-6.53E-05,-3.09E-05,6.13E-06,4.06E-05,6.78E-05,8.43E-05,8.85E-05,8.03E-05,6.14E-05,3.5E-05,5.03E-06,-2.41E-05,-4.85E-05,-6.49E-05,-7.16E-05,-6.81E-05,-5.54E-05,-3.57E-05,-1.22E-05,1.18E-05,3.29E-05,4.84E-05,5.64E-05,5.61E-05,4.82E-05,3.41E-05,1.61E-05,-3.17E-06,-2.09E-05,-3.47E-05,-4.29E-05,-4.48E-05,-4.04E-05,-3.07E-05,-1.74E-05,-2.49E-06,1.19E-05,2.37E-05,3.15E-05,3.45E-05,3.26E-05,2.63E-05,1.68E-05,5.68E-06,-5.48E-06,-1.51E-05,-2.2E-05,-2.54E-05,-2.5E-05,-2.13E-05,-1.49E-05,-6.91E-06,1.35E-06,8.75E-06,1.43E-05,1.75E-05,1.8E-05,1.59E-05,1.19E-05,6.59E-06,9.22E-07,-4.3E-06,-8.37E-06,-1.08E-05,-1.15E-05,-1.05E-05,-8.2E-06,-5.04E-06,-1.63E-06,1.5E-06,3.91E-06,5.34E-06,5.73E-06,5.2E-06,4E-06,2.49E-06,1E-06,-1.62E-07,-8.23E-07,-9.37E-07,-5.96E-07,-7.84E-18
